# Position (m)         Density(m^-3)
0.000000000000000000e+00 1.353680936123266000e+16
1.308593750000000078e-04 1.387477458509031200e+16
2.617187500000000156e-04 1.450186431053910200e+16
3.925781250000000234e-04 1.511937994054200000e+16
5.234375000000000312e-04 1.589918995553813000e+16
6.542968750000000390e-04 1.677658723175145400e+16
7.851562500000000468e-04 1.780334213869945800e+16
9.160156250000000546e-04 1.907595152573590000e+16
1.046875000000000062e-03 2.043585827654154400e+16
1.177734374999999962e-03 2.214127370689031200e+16
1.308593750000000078e-03 2.453915574332134800e+16
1.439453125000000194e-03 2.740622385217246000e+16
1.570312500000000094e-03 3.112547519007149600e+16
1.701171874999999993e-03 3.705781698257790400e+16
1.832031250000000109e-03 4.552207759484523200e+16
1.962890625000000226e-03 6.081633523219740800e+16
2.093750000000000125e-03 8.926452083383833600e+16
2.224609375000000024e-03 1.412329769062869760e+17
2.355468749999999924e-03 1.966866637321282240e+17
2.486328125000000257e-03 2.438232319907092480e+17
2.617187500000000156e-03 2.791206987080831360e+17
2.748046875000000056e-03 3.102498498926921600e+17
2.878906250000000389e-03 3.383417055057813760e+17
3.009765625000000288e-03 3.630600500265338880e+17
3.140625000000000187e-03 3.865078256852878720e+17
3.271484375000000087e-03 4.075710089703432320e+17
3.402343749999999986e-03 4.282395597440261120e+17
3.533203125000000319e-03 4.474064173749267840e+17
3.664062500000000219e-03 4.659100048971523200e+17
3.794921875000000118e-03 4.827149222039708160e+17
3.925781250000000451e-03 5.001664730482904320e+17
4.056640624999999917e-03 5.157013561223422720e+17
4.187500000000000250e-03 5.315884343628309760e+17
4.318359375000000583e-03 5.459289467165078400e+17
4.449218750000000049e-03 5.607001378311077120e+17
4.580078125000000382e-03 5.744431572324624640e+17
4.710937499999999847e-03 5.885874898592798720e+17
4.841796875000000180e-03 6.012766699002534400e+17
4.972656250000000513e-03 6.141726755826004480e+17
5.103515624999999979e-03 6.267600611443165440e+17
5.234375000000000312e-03 6.390826952977413120e+17
5.365234375000000645e-03 6.514565360334277120e+17
5.496093750000000111e-03 6.634578646608220160e+17
5.626953125000000444e-03 6.747756280131041280e+17
5.757812500000000777e-03 6.858214628261059840e+17
5.888671875000000243e-03 6.968689210056686080e+17
6.019531250000000576e-03 7.070768299889747200e+17
6.150390625000000042e-03 7.175826293979578880e+17
6.281250000000000375e-03 7.276365614731453440e+17
6.412109375000000708e-03 7.384838627090878720e+17
6.542968750000000173e-03 7.481296343320282880e+17
6.673828125000000507e-03 7.581481625343496960e+17
6.804687499999999972e-03 7.678152510460463360e+17
6.935546875000000305e-03 7.775030648046126080e+17
7.066406250000000638e-03 7.869076203938296320e+17
7.197265625000000104e-03 7.969272795241512960e+17
7.328125000000000437e-03 8.066721512559417600e+17
7.458984375000000770e-03 8.156694743904642560e+17
7.589843750000000236e-03 8.241775035856933120e+17
7.720703125000000569e-03 8.332954612357589760e+17
7.851562500000000902e-03 8.417292119988167680e+17
7.982421875000001235e-03 8.509946915375116800e+17
8.113281249999999833e-03 8.591190629206092800e+17
8.244140625000000167e-03 8.677573707559755520e+17
8.375000000000000500e-03 8.759729886526119680e+17
8.505859375000000833e-03 8.844324842635344640e+17
8.636718750000001166e-03 8.922960579611834880e+17
8.767578124999999764e-03 8.997671681815916800e+17
8.898437500000000097e-03 9.074564647455139840e+17
9.029296875000000430e-03 9.154931201103498240e+17
9.160156250000000763e-03 9.236391613463491840e+17
9.291015625000001096e-03 9.313832852178417920e+17
9.421874999999999695e-03 9.393372111284890880e+17
9.552734375000000028e-03 9.469487812852780800e+17
9.683593750000000361e-03 9.544030208083283200e+17
9.814453125000000694e-03 9.614832148776705280e+17
9.945312500000001027e-03 9.689180816356270080e+17
1.007617187500000136e-02 9.756842914741899520e+17
1.020703124999999996e-02 9.828010360147695360e+17
1.033789062500000029e-02 9.894709855515573760e+17
1.046875000000000062e-02 9.964007187877306880e+17
1.059960937500000096e-02 1.003455050218173568e+18
1.073046875000000129e-02 1.010749837719281280e+18
1.086132812499999989e-02 1.017012851095501184e+18
1.099218750000000022e-02 1.023923792697017088e+18
1.112304687500000056e-02 1.030199826931823488e+18
1.125390625000000089e-02 1.036716082238642688e+18
1.138476562500000122e-02 1.042964119808758528e+18
1.151562500000000155e-02 1.048548086717334400e+18
1.164648437500000015e-02 1.055104951110574720e+18
1.177734375000000049e-02 1.060887968797921024e+18
1.190820312500000082e-02 1.066878704822559232e+18
1.203906250000000115e-02 1.072945339205366912e+18
1.216992187500000148e-02 1.079125413256371968e+18
1.230078125000000008e-02 1.084860596089676160e+18
1.243164062500000042e-02 1.090293981848054272e+18
1.256250000000000075e-02 1.097176162654608128e+18
1.269335937500000108e-02 1.102872365228755712e+18
1.282421875000000142e-02 1.107926871159356928e+18
1.295507812500000001e-02 1.113818594883679488e+18
1.308593750000000035e-02 1.119809994735644288e+18
1.321679687500000068e-02 1.125266286022993024e+18
1.334765625000000101e-02 1.130130723230814848e+18
1.347851562500000135e-02 1.135057551642226304e+18
1.360937499999999994e-02 1.140809485305536128e+18
1.374023437500000028e-02 1.146078100074905600e+18
1.387109375000000061e-02 1.152145115531038336e+18
1.400195312500000094e-02 1.157434865869508864e+18
1.413281250000000128e-02 1.162803283334098688e+18
1.426367187500000161e-02 1.167743504843912192e+18
1.439453125000000021e-02 1.172517866204904704e+18
1.452539062500000054e-02 1.177583542088881152e+18
1.465625000000000087e-02 1.182961742366920192e+18
1.478710937500000121e-02 1.187852368646673408e+18
1.491796875000000154e-02 1.192966548077009664e+18
1.504882812500000014e-02 1.197961656275855872e+18
1.517968750000000047e-02 1.202279535466671872e+18
1.531054687500000080e-02 1.206610267929207552e+18
1.544140625000000114e-02 1.211789461420298496e+18
1.557226562500000147e-02 1.216782317795781632e+18
1.570312500000000180e-02 1.221836078722030848e+18
1.583398437500000214e-02 1.226296198763833344e+18
1.596484375000000247e-02 1.231055365127784704e+18
1.609570312499999933e-02 1.234939199100663296e+18
1.622656249999999967e-02 1.239128902576655104e+18
1.635742187500000000e-02 1.243762694697879040e+18
1.648828125000000033e-02 1.247781009902690048e+18
1.661914062500000067e-02 1.252331080662196992e+18
1.675000000000000100e-02 1.256092687558902016e+18
1.688085937500000133e-02 1.260405992554177792e+18
1.701171875000000167e-02 1.264555563613790976e+18
1.714257812500000200e-02 1.269278019178697472e+18
1.727343750000000233e-02 1.273139768498669312e+18
1.740429687500000266e-02 1.277280408560822016e+18
1.753515624999999953e-02 1.281308045720707840e+18
1.766601562499999986e-02 1.284972079211867392e+18
1.779687500000000019e-02 1.289137191756391936e+18
1.792773437500000053e-02 1.292874973609808128e+18
1.805859375000000086e-02 1.296699851056145920e+18
1.818945312500000119e-02 1.300712540608397056e+18
1.832031250000000153e-02 1.304336267805744640e+18
1.845117187500000186e-02 1.307994369908723456e+18
1.858203125000000219e-02 1.311405584878979328e+18
1.871289062500000253e-02 1.315237699701412864e+18
1.884374999999999939e-02 1.318376635556033792e+18
1.897460937499999972e-02 1.322539628809189376e+18
1.910546875000000006e-02 1.326704376066555648e+18
1.923632812500000039e-02 1.330130060047877120e+18
1.936718750000000072e-02 1.333188903950218752e+18
1.949804687500000105e-02 1.336717235365835264e+18
1.962890625000000139e-02 1.340234307196765696e+18
1.975976562500000172e-02 1.343495071711895552e+18
1.989062500000000205e-02 1.347118780493097728e+18
2.002148437500000239e-02 1.349967799772843264e+18
2.015234375000000272e-02 1.352710668681397760e+18
2.028320312499999958e-02 1.355288850432663040e+18
2.041406249999999992e-02 1.358130567935832320e+18
2.054492187500000025e-02 1.361638711026992896e+18
2.067578125000000058e-02 1.365120806881582080e+18
2.080664062500000092e-02 1.368937340434111488e+18
2.093750000000000125e-02 1.371560502740555776e+18
2.106835937500000158e-02 1.374762591649819904e+18
2.119921875000000192e-02 1.378268954182304512e+18
2.133007812500000225e-02 1.381108973979028992e+18
2.146093750000000258e-02 1.383950329980928512e+18
2.159179687500000291e-02 1.386343693229194240e+18
2.172265624999999978e-02 1.389259434467718912e+18
2.185351562500000011e-02 1.391536518128569344e+18
2.198437500000000044e-02 1.393977883809608192e+18
2.211523437500000078e-02 1.396804953339200512e+18
2.224609375000000111e-02 1.399476831150327808e+18
2.237695312500000144e-02 1.401879150206115840e+18
2.250781250000000178e-02 1.404698232040344832e+18
2.263867187500000211e-02 1.407097705359284224e+18
2.276953125000000244e-02 1.410081812021018368e+18
2.290039062500000278e-02 1.412863564764200448e+18
2.303125000000000311e-02 1.414737452706027776e+18
2.316210937499999997e-02 1.417015223198537472e+18
2.329296875000000031e-02 1.419770767767349248e+18
2.342382812500000064e-02 1.422079336919489024e+18
2.355468750000000097e-02 1.424608516238363904e+18
2.368554687500000130e-02 1.426586912702065152e+18
2.381640625000000164e-02 1.428552375575160064e+18
2.394726562500000197e-02 1.431479863320950528e+18
2.407812500000000230e-02 1.433960700494860544e+18
2.420898437500000264e-02 1.436091096856033536e+18
2.433984375000000297e-02 1.438267069234371072e+18
2.447070312499999983e-02 1.440584711597115136e+18
2.460156250000000017e-02 1.442719594047481600e+18
2.473242187500000050e-02 1.444788776245856512e+18
2.486328125000000083e-02 1.446173667233158144e+18
2.499414062500000117e-02 1.448182239137169920e+18
2.512500000000000150e-02 1.450243572105252352e+18
2.525585937500000183e-02 1.452569737654425856e+18
2.538671875000000216e-02 1.454413942417963776e+18
2.551757812500000250e-02 1.455691609327477248e+18
2.564843750000000283e-02 1.457732076220559872e+18
2.577929687500000316e-02 1.459817246306598912e+18
2.591015625000000003e-02 1.461543418216497152e+18
2.604101562500000036e-02 1.463510332790169088e+18
2.617187500000000069e-02 1.465558747450338304e+18
2.630273437500000103e-02 1.467028251240183552e+18
2.643359375000000136e-02 1.468148132019416064e+18
2.656445312500000169e-02 1.470102286563472896e+18
2.669531250000000203e-02 1.472190327228161024e+18
2.682617187500000236e-02 1.473964814992872448e+18
2.695703125000000269e-02 1.475563093261996288e+18
2.708789062500000303e-02 1.477063891497410560e+18
2.721874999999999989e-02 1.478428149401312256e+18
2.734960937500000022e-02 1.479553402358467328e+18
2.748046875000000056e-02 1.481470727723132160e+18
2.761132812500000089e-02 1.482826119178938112e+18
2.774218750000000122e-02 1.484044750426081280e+18
2.787304687500000155e-02 1.484890234485732352e+18
2.800390625000000189e-02 1.485985290719896832e+18
2.813476562500000222e-02 1.487087532587935488e+18
2.826562500000000255e-02 1.487881195388439296e+18
2.839648437500000289e-02 1.488430428455606016e+18
2.852734375000000322e-02 1.489618827546153728e+18
2.865820312500000008e-02 1.491280815876786688e+18
2.878906250000000042e-02 1.492508200556248320e+18
2.891992187500000075e-02 1.493744827871740160e+18
2.905078125000000108e-02 1.495054158814752768e+18
2.918164062500000142e-02 1.495302756545368064e+18
2.931250000000000175e-02 1.496284276645762560e+18
2.944335937500000208e-02 1.497149703470807040e+18
2.957421875000000241e-02 1.497867405474783488e+18
2.970507812500000275e-02 1.499035644689039616e+18
2.983593750000000308e-02 1.500378154558647040e+18
2.996679687500000341e-02 1.501537333385932544e+18
3.009765625000000028e-02 1.501919349880421888e+18
3.022851562500000061e-02 1.502029056815148544e+18
3.035937500000000094e-02 1.502182731186479616e+18
3.049023437500000128e-02 1.502974528800597760e+18
3.062109375000000161e-02 1.503594913340891392e+18
3.075195312500000194e-02 1.504592869604607488e+18
3.088281250000000228e-02 1.505429022879571200e+18
3.101367187500000261e-02 1.506358160872644352e+18
3.114453125000000294e-02 1.507040066631724032e+18
3.127539062500000328e-02 1.507469493190244864e+18
3.140625000000000361e-02 1.507462113407008256e+18
3.153710937500000394e-02 1.507976931156308736e+18
3.166796875000000427e-02 1.509145125577678080e+18
3.179882812500000461e-02 1.509889145175792640e+18
3.192968750000000494e-02 1.509617617265032960e+18
3.206054687500000527e-02 1.509135659765827840e+18
3.219140624999999867e-02 1.508932113536488192e+18
3.232226562499999900e-02 1.509628889032577792e+18
3.245312499999999933e-02 1.510321654965602816e+18
3.258398437499999967e-02 1.510578742295232256e+18
3.271484375000000000e-02 1.510651206319796224e+18
3.284570312500000033e-02 1.511132304232468736e+18
3.297656250000000067e-02 1.511207338392011776e+18
3.310742187500000100e-02 1.511753915875897344e+18
3.323828125000000133e-02 1.511317603790308352e+18
3.336914062500000167e-02 1.510992889673330432e+18
3.350000000000000200e-02 1.511652240698563584e+18
3.363085937500000233e-02 1.512004043639796736e+18
3.376171875000000266e-02 1.512076787650413056e+18
3.389257812500000300e-02 1.511974925267266304e+18
3.402343750000000333e-02 1.511314041722147328e+18
3.415429687500000366e-02 1.510855621839591936e+18
3.428515625000000400e-02 1.511544628606342400e+18
3.441601562500000433e-02 1.511059397181464832e+18
3.454687500000000466e-02 1.510640507709709824e+18
3.467773437500000500e-02 1.510097279763034880e+18
3.480859375000000533e-02 1.510257244224389632e+18
3.493945312499999872e-02 1.509862208510633472e+18
3.507031249999999906e-02 1.509242297314890752e+18
3.520117187499999939e-02 1.509106625117774080e+18
3.533203124999999972e-02 1.508625368710627328e+18
3.546289062500000006e-02 1.507442576754304768e+18
3.559375000000000039e-02 1.507179167399651840e+18
3.572460937500000072e-02 1.506003154643392512e+18
3.585546875000000105e-02 1.505079004665947904e+18
3.598632812500000139e-02 1.504718460069234688e+18
3.611718750000000172e-02 1.504474835696873984e+18
3.624804687500000205e-02 1.503368030950387200e+18
3.637890625000000239e-02 1.502763815966328064e+18
3.650976562500000272e-02 1.502587662697890048e+18
3.664062500000000305e-02 1.502595428087041024e+18
3.677148437500000339e-02 1.501708023364200192e+18
3.690234375000000372e-02 1.500634438092765696e+18
3.703320312500000405e-02 1.500114019576067072e+18
3.716406250000000439e-02 1.499704744146287360e+18
3.729492187500000472e-02 1.499238063702262784e+18
3.742578125000000505e-02 1.499011576544182528e+18
3.755664062500000538e-02 1.498034684767239936e+18
3.768749999999999878e-02 1.496848798218061056e+18
3.781835937499999911e-02 1.495690246584058368e+18
3.794921874999999944e-02 1.494482925001634816e+18
3.808007812499999978e-02 1.493137540270308864e+18
3.821093750000000011e-02 1.492531269249462784e+18
3.834179687500000044e-02 1.491613664243383808e+18
3.847265625000000078e-02 1.490687814257167872e+18
3.860351562500000111e-02 1.489208299456945664e+18
3.873437500000000144e-02 1.488236661764271360e+18
3.886523437500000178e-02 1.487215278334284544e+18
3.899609375000000211e-02 1.486685714343452416e+18
3.912695312500000244e-02 1.485273653402419200e+18
3.925781250000000278e-02 1.483115806457822720e+18
3.938867187500000311e-02 1.481649199189811456e+18
3.951953125000000344e-02 1.480627816992083712e+18
3.965039062500000377e-02 1.479471968165425152e+18
3.978125000000000411e-02 1.478494255050042624e+18
3.991210937500000444e-02 1.477072613736929536e+18
4.004296875000000477e-02 1.475688858329489152e+18
4.017382812500000511e-02 1.474544418343948288e+18
4.030468750000000544e-02 1.473340101948620544e+18
4.043554687500000577e-02 1.472454990969631744e+18
4.056640624999999917e-02 1.470722592550529536e+18
4.069726562499999950e-02 1.468750373032945408e+18
4.082812499999999983e-02 1.467192093401232128e+18
4.095898437500000017e-02 1.465504889598556416e+18
4.108984375000000050e-02 1.463075339340612608e+18
4.122070312500000083e-02 1.461275808404395776e+18
4.135156250000000117e-02 1.459384367154468352e+18
4.148242187500000150e-02 1.457732114595392256e+18
4.161328125000000183e-02 1.456515691213088000e+18
4.174414062500000216e-02 1.454013994981307392e+18
4.187500000000000250e-02 1.452063645610169344e+18
4.200585937500000283e-02 1.449990915468474112e+18
4.213671875000000316e-02 1.448541784185635072e+18
4.226757812500000350e-02 1.446813720570650880e+18
4.239843750000000383e-02 1.444311076337242368e+18
4.252929687500000416e-02 1.442193633443011328e+18
4.266015625000000450e-02 1.440127932393254400e+18
4.279101562500000483e-02 1.437752376326465024e+18
4.292187500000000516e-02 1.435826857499525120e+18
4.305273437500000550e-02 1.433658246468538624e+18
4.318359375000000583e-02 1.431425252901228032e+18
4.331445312499999922e-02 1.428759176523381504e+18
4.344531249999999956e-02 1.427000261489007104e+18
4.357617187499999989e-02 1.425209889456841472e+18
4.370703125000000022e-02 1.423169230102053120e+18
4.383789062500000056e-02 1.420567251507385088e+18
4.396875000000000089e-02 1.417729503111722752e+18
4.409960937500000122e-02 1.415172369252173312e+18
4.423046875000000155e-02 1.413318369416147456e+18
4.436132812500000189e-02 1.410711345374344704e+18
4.449218750000000222e-02 1.407505478693076992e+18
4.462304687500000255e-02 1.405358894916885760e+18
4.475390625000000289e-02 1.402491028866028032e+18
4.488476562500000322e-02 1.399511324609102080e+18
4.501562500000000355e-02 1.396954090510340864e+18
4.514648437500000389e-02 1.394433396198700800e+18
4.527734375000000422e-02 1.391726989474070528e+18
4.540820312500000455e-02 1.389077568771954176e+18
4.553906250000000488e-02 1.385807874580879360e+18
4.566992187500000522e-02 1.382408817969041152e+18
4.580078125000000555e-02 1.379736568183079424e+18
4.593164062500000588e-02 1.376899631113811200e+18
4.606250000000000622e-02 1.374722941710671872e+18
4.619335937499999961e-02 1.371356116825522688e+18
4.632421874999999994e-02 1.368401284965345792e+18
4.645507812500000028e-02 1.365850422321026816e+18
4.658593750000000061e-02 1.362823477737932288e+18
4.671679687500000094e-02 1.359510097408049152e+18
4.684765625000000128e-02 1.356460131436239872e+18
4.697851562500000161e-02 1.352898125454756352e+18
4.710937500000000194e-02 1.348851325780079360e+18
4.724023437500000228e-02 1.345592458282648832e+18
4.737109375000000261e-02 1.341814474984589056e+18
4.750195312500000294e-02 1.338504401638360832e+18
4.763281250000000328e-02 1.335742926754414336e+18
4.776367187500000361e-02 1.332694862770305280e+18
4.789453125000000394e-02 1.329011250957017344e+18
4.802539062500000427e-02 1.325442006313467904e+18
4.815625000000000461e-02 1.321984453005865728e+18
4.828710937500000494e-02 1.317931355871692288e+18
4.841796875000000527e-02 1.314392432957132288e+18
4.854882812500000561e-02 1.310869903507126272e+18
4.867968750000000594e-02 1.307030133184888320e+18
4.881054687500000627e-02 1.303358569902471424e+18
4.894140624999999967e-02 1.299811825709769728e+18
4.907226562500000000e-02 1.296197900706737408e+18
4.920312500000000033e-02 1.292311025965603840e+18
4.933398437500000067e-02 1.287993221784492800e+18
4.946484375000000100e-02 1.283391211488848640e+18
4.959570312500000133e-02 1.279770207114797824e+18
4.972656250000000167e-02 1.276262016663933440e+18
4.985742187500000200e-02 1.272079270931549696e+18
4.998828125000000233e-02 1.267034515632756736e+18
5.011914062500000266e-02 1.263232205822951424e+18
5.025000000000000300e-02 1.258436960390892544e+18
5.038085937500000333e-02 1.253468629295645696e+18
5.051171875000000366e-02 1.249239918815308544e+18
5.064257812500000400e-02 1.245450064205579520e+18
5.077343750000000433e-02 1.241040450100442880e+18
5.090429687500000466e-02 1.236829315892014848e+18
5.103515625000000500e-02 1.232307412636167936e+18
